From CRC handbook of Chemistry and Physics, page 12-210
Temperature (K)	Specific heat capacity (J/kg/K)

4	2.32
6	3.69
8	9.104
10	18.02
12	29.27
14	41.50
16	53.77
18	65.60
20	76.79
30	124.3
40	164.4
50	202.1
60	239.0
70	275.6
80	312.0
90	348.4
100	384.6
120	456.7
140	528.4
160	599.6
180	670.0
200	738.9
220	805.8
240	869.5
260	929.2
280	983.6
300	1032
