Data from https://doi.org/10.1103/PhysRevMaterials.3.044406
Upon heating
Temperature(K)	Heat capacity(J/kg/K)

220	485.43
220.1	485.59
220.2	485.76
220.3	485.92
220.4	486.08
220.5	486.25
220.6	486.41
220.7	486.57
220.8	486.74
220.9	486.9
221	487.06
221.1	487.23
221.2	487.39
221.3	487.55
221.4	487.72
221.5	487.88
221.6	488.04
221.7	488.21
221.8	488.37
221.9	488.53
222	488.7
222.1	488.86
222.2	489.02
222.3	489.19
222.4	489.35
222.5	489.51
222.6	489.68
222.7	489.84
222.8	490
222.9	490.17
223	490.33
223.1	490.49
223.2	490.66
223.3	490.82
223.4	490.98
223.5	491.15
223.6	491.31
223.7	491.47
223.8	491.64
223.9	491.8
224	491.96
224.1	492.13
224.2	492.29
224.3	492.45
224.4	492.61
224.5	492.78
224.6	492.94
224.7	493.1
224.8	493.27
224.9	493.43
225	493.59
225.1	493.76
225.2	493.92
225.3	494.08
225.4	494.25
225.5	494.41
225.6	494.57
225.7	494.74
225.8	494.9
225.9	495.06
226	495.23
226.1	495.39
226.2	495.55
226.3	495.72
226.4	495.88
226.5	496.04
226.6	496.21
226.7	496.37
226.8	496.53
226.9	496.7
227	496.86
227.1	497.02
227.2	497.19
227.3	497.35
227.4	497.51
227.5	497.68
227.6	497.84
227.7	498
227.8	498.17
227.9	498.33
228	498.49
228.1	498.66
228.2	498.82
228.3	498.98
228.4	499.15
228.5	499.31
228.6	499.47
228.7	499.64
228.8	499.8
228.9	499.96
229	500.13
229.1	500.29
229.2	500.45
229.3	500.62
229.4	500.78
229.5	500.94
229.6	501.11
229.7	501.27
229.8	501.43
229.9	501.6
230	501.76
230.1	501.92
230.2	502.09
230.3	502.25
230.4	502.41
230.5	502.58
230.6	502.74
230.7	502.9
230.8	503.07
230.9	503.23
231	503.39
231.1	503.56
231.2	503.72
231.3	503.88
231.4	504.05
231.5	504.21
231.6	504.37
231.7	504.54
231.8	504.7
231.9	504.86
232	505.03
232.1	505.19
232.2	505.35
232.3	505.52
232.4	505.68
232.5	505.84
232.6	506.01
232.7	506.17
232.8	506.33
232.9	506.5
233	506.66
233.1	506.82
233.2	506.99
233.3	507.15
233.4	507.31
233.5	507.48
233.6	507.64
233.7	507.8
233.8	507.97
233.9	508.13
234	508.29
234.1	508.46
234.2	508.62
234.3	508.78
234.4	508.95
234.5	509.11
234.6	509.27
234.7	509.44
234.8	509.6
234.9	509.76
235	509.92
235.1	510.09
235.2	510.25
235.3	510.41
235.4	510.58
235.5	510.74
235.6	510.9
235.7	511.07
235.8	511.23
235.9	511.39
236	511.56
236.1	511.72
236.2	511.88
236.3	512.05
236.4	512.21
236.5	512.37
236.6	512.54
236.7	512.7
236.8	512.86
236.9	513.03
237	513.19
237.1	513.35
237.2	513.52
237.3	513.68
237.4	513.84
237.5	514.01
237.6	514.17
237.7	514.33
237.8	514.5
237.9	514.66
238	514.82
238.1	514.99
238.2	515.15
238.3	515.31
238.4	515.48
238.5	515.64
238.6	515.8
238.7	515.97
238.8	516.13
238.9	516.29
239	516.46
239.1	516.62
239.2	516.78
239.3	780.64
239.4	530.85
239.5	532.31
239.6	533.43
239.7	534
239.8	534.67
239.9	535.7
240	536.54
240.1	540.1
240.2	540.76
240.3	540.84
240.4	540.73
240.5	541.54
240.6	542.62
240.7	543.63
240.8	544.86
240.9	546.15
241	547.31
241.1	548.89
241.2	550.37
241.3	551.68
241.4	553.34
241.5	554.89
241.6	556.43
241.7	558.05
241.8	559.82
241.9	561.21
242	563
242.1	564.86
242.2	566.81
242.3	568.95
242.4	570.58
242.5	573.08
242.6	575.26
242.7	587.23
242.8	580.65
242.9	582
243	584.33
243.1	586.57
243.2	589.6
243.3	591.78
243.4	594.09
243.5	597.17
243.6	599.42
243.7	602.67
243.8	605.79
243.9	608.6
244	619.48
244.1	626
244.2	619.5
244.3	622.15
244.4	625.48
244.5	629.23
244.6	633.56
244.7	636.41
244.8	640.77
244.9	644
245	647.98
245.1	652.71
245.2	657.28
245.3	661.69
245.4	665.92
245.5	670.91
245.6	675.33
245.7	679.28
245.8	684.58
245.9	690.74
246	695.72
246.1	700.6
246.2	706.69
246.3	712.38
246.4	717.94
246.5	747.31
246.6	745.39
246.7	737.44
246.8	741.43
246.9	749.77
247	755.09
247.1	761.33
247.2	769.14
247.3	776.83
247.4	783.52
247.5	790.35
247.6	798.57
247.7	805.9
247.8	812.64
247.9	820.9
248	828.8
248.1	837.04
248.2	845.22
248.3	873.21
248.4	881.26
248.5	910.2
248.6	893.8
248.7	890.9
248.8	898.83
248.9	907.55
249	917.93
249.1	928.17
249.2	937.45
249.3	947.07
249.4	957.54
249.5	969.45
249.6	981.18
249.7	1006.32
249.8	1026.2
249.9	1018.39
250	1028.75
250.1	1040.47
250.2	1051.35
250.3	1067.34
250.4	1091.46
250.5	1114.5
250.6	1110.74
250.7	1122.03
250.8	1135.87
250.9	1150.87
251	1165.68
251.1	1183.55
251.2	1196.62
251.3	1214.18
251.4	1230.35
251.5	1375.93
251.6	1317.15
251.7	1289.87
251.8	1303.27
251.9	1335.08
252	1341.69
252.1	1362.36
252.2	1385.25
252.3	1521.39
252.4	1516.65
252.5	1461.34
252.6	1474.63
252.7	1491.82
252.8	1511.76
252.9	1535.05
253	1562.19
253.1	1586.51
253.2	1610.95
253.3	1638.54
253.4	1675.95
253.5	1693.84
253.6	1716.81
253.7	1742.33
253.8	1769.21
253.9	1796.84
254	1826.13
254.1	2036.86
254.2	1972.59
254.3	1919.17
254.4	1937.91
254.5	1973.18
254.6	1999.88
254.7	2031.44
254.8	2062.22
254.9	2092.47
255	2120.43
255.1	2155.29
255.2	2187.38
255.3	2218.25
255.4	2247.9
255.5	2374.45
255.6	2483.64
255.7	2357.59
255.8	2372.93
255.9	2400.85
256	2431.17
256.1	2461.82
256.2	2488.75
256.3	2521.21
256.4	2549.96
256.5	2573.11
256.6	2601.25
256.7	2627.83
256.8	2644.82
256.9	2666.48
257	2682.81
257.1	2700.92
257.2	2738.53
257.3	3068.96
257.4	2818.79
257.5	2849.94
257.6	2735.78
257.7	2735.1
257.8	3071.08
257.9	2716.92
258	2642.61
258.1	2606.23
258.2	2554.05
258.3	2502.5
258.4	2434.14
258.5	2381.21
258.6	2312.48
258.7	2242.54
258.8	2302.36
258.9	2221.03
259	2035.37
259.1	1966.05
259.2	1897.42
259.3	1827.38
259.4	1766.42
259.5	1706.55
259.6	1642.43
259.7	1589.15
259.8	1528.45
259.9	1476.12
260	1423.64
260.1	1379.36
260.2	1328.05
260.3	1286.36
260.4	1249.11
260.5	1210.8
260.6	1173
260.7	1140.69
260.8	1104.04
260.9	1162.15
261	1195.36
261.1	1028.8
261.2	984.62
261.3	962.04
261.4	934.8
261.5	910.99
261.6	888.61
261.7	881.14
261.8	864.74
261.9	832.81
262	811.28
262.1	793.89
262.2	777.5
262.3	762.4
262.4	747.42
262.5	735.21
262.6	720.86
262.7	707.13
262.8	695.48
262.9	685.33
263	675.54
263.1	664.34
263.2	655.67
263.3	646.03
263.4	637.5
263.5	630.54
263.6	622.34
263.7	615.56
263.8	608.06
263.9	602.03
264	595.42
264.1	589.81
264.2	584.06
264.3	579.29
264.4	574.58
264.5	571.93
264.6	565.83
264.7	561.06
264.8	557.23
264.9	553.57
265	550.05
265.1	546.36
265.2	543.23
265.3	540.6
265.4	537.61
265.5	546.55
265.6	534.59
265.7	529.68
265.8	527.27
265.9	524.98
266	523.03
266.1	520.66
266.2	521.75
266.3	517.01
266.4	515.2
266.5	513.38
266.6	511.64
266.7	509.99
266.8	508.55
266.9	506.98
267	505.6
267.1	504.48
267.2	503.25
267.3	501.78
267.4	500.53
267.5	499.62
267.6	498.71
267.7	497.67
267.8	496.61
267.9	495.72
268	494.63
268.1	493.79
268.2	492.91
268.3	492.15
268.4	491.42
268.5	490.9
268.6	490.03
268.7	241.78
268.8	478.65
268.9	478.51
269	478.52
269.1	478.53
269.2	478.54
269.3	478.54
269.4	478.55
269.5	478.56
269.6	478.57
269.7	478.58
269.8	478.59
269.9	478.59
270	478.6
270.1	478.61
270.2	478.62
270.3	478.63
270.4	478.64
270.5	478.64
270.6	478.65
270.7	478.66
270.8	478.67
270.9	478.68
271	478.69
271.1	478.69
271.2	478.7
271.3	478.71
271.4	478.72
271.5	478.73
271.6	478.74
271.7	478.74
271.8	478.75
271.9	478.76
272	478.77
272.1	478.78
272.2	478.79
272.3	478.8
272.4	478.8
272.5	478.81
272.6	478.82
272.7	478.83
272.8	478.84
272.9	478.85
273	478.85
273.1	478.86
273.2	478.87
273.3	478.88
273.4	478.89
273.5	478.9
273.6	478.9
273.7	478.91
273.8	478.92
273.9	478.93
274	478.94
274.1	478.95
274.2	478.95
274.3	478.96
274.4	478.97
274.5	478.98
274.6	478.99
274.7	479
274.8	479
274.9	479.01
275	479.02
275.1	479.03
275.2	479.04
275.3	479.05
275.4	479.06
275.5	479.06
275.6	479.07
275.7	479.08
275.8	479.09
275.9	479.1
276	479.11
276.1	479.11
276.2	479.12
276.3	479.13
276.4	479.14
276.5	479.15
276.6	479.16
276.7	479.16
276.8	479.17
276.9	479.18
277	479.19
277.1	479.2
277.2	479.21
277.3	479.21
277.4	479.22
277.5	479.23
277.6	479.24
277.7	479.25
277.8	479.26
277.9	479.26
278	479.27
278.1	479.28
278.2	479.29
278.3	479.3
278.4	479.31
278.5	479.32
278.6	479.32
278.7	479.33
278.8	479.34
278.9	479.35
279	479.36
279.1	479.37
279.2	479.37
279.3	479.38
279.4	479.39
279.5	479.4
279.6	479.41
279.7	479.42
279.8	479.42
279.9	479.43
280	479.44
280.1	479.45
280.2	479.46
280.3	479.47
280.4	479.47
280.5	479.48
280.6	479.49
280.7	479.5
280.8	479.51
280.9	479.52
281	479.52
281.1	479.53
281.2	479.54
281.3	479.55
281.4	479.56
281.5	479.57
281.6	479.58
281.7	479.58
281.8	479.59
281.9	479.6
282	479.61
282.1	479.62
282.2	479.63
282.3	479.63
282.4	479.64
282.5	479.65
282.6	479.66
282.7	479.67
282.8	479.68
282.9	479.68
283	479.69
283.1	479.7
283.2	479.71
283.3	479.72
283.4	479.73
283.5	479.73
283.6	479.74
283.7	479.75
283.8	479.76
283.9	479.77
284	479.78
284.1	479.78
284.2	479.79
284.3	479.8
284.4	479.81
284.5	479.82
284.6	479.83
284.7	479.84
284.8	479.84
284.9	479.85
285	479.86
285.1	479.87
285.2	479.88
285.3	479.89
285.4	479.89
285.5	479.9
285.6	479.91
285.7	479.92
285.8	479.93
285.9	479.94
286	479.94
286.1	479.95
286.2	479.96
286.3	479.97
286.4	479.98
286.5	479.99
286.6	479.99
286.7	480
286.8	480.01
286.9	480.02
287	480.03
287.1	480.04
287.2	480.04
287.3	480.05
287.4	480.06
287.5	480.07
287.6	480.08
287.7	480.09
287.8	480.1
287.9	480.1
288	480.11
288.1	480.12
288.2	480.13
288.3	480.14
288.4	480.15
288.5	480.15
288.6	480.16
288.7	480.17
288.8	480.18
288.9	480.19
289	480.2
289.1	480.2
289.2	480.21
289.3	480.22
289.4	480.23
289.5	480.24
289.6	480.25
289.7	480.25
289.8	480.26
289.9	480.27
290	480.28
290.1	480.29
290.2	480.3
290.3	480.3
290.4	480.31
290.5	480.32
290.6	480.33
290.7	480.34
290.8	480.35
290.9	480.36
291	480.36
291.1	480.37
291.2	480.38
291.3	480.39
291.4	480.4
291.5	480.41
291.6	480.41
291.7	480.42
291.8	480.43
291.9	480.44
292	480.45
292.1	480.46
292.2	480.46
292.3	480.47
292.4	480.48
292.5	480.49
292.6	480.5
292.7	480.51
292.8	480.51
292.9	480.52
293	480.53
293.1	480.54
293.2	480.55
293.3	480.56
293.4	480.56
293.5	480.57
293.6	480.58
293.7	480.59
293.8	480.6
293.9	480.61
294	480.62
294.1	480.62
294.2	480.63
294.3	480.64
294.4	480.65
294.5	480.66
294.6	480.67
294.7	480.67
294.8	480.68
294.9	480.69
295	480.7
295.1	480.71
295.2	480.72
295.3	480.72
295.4	480.73
295.5	480.74
295.6	480.75
295.7	480.76
295.8	480.77
295.9	480.77
296	480.78
296.1	480.79
296.2	480.8
296.3	480.81
296.4	480.82
296.5	480.82
296.6	480.83
296.7	480.84
296.8	480.85
296.9	480.86
297	480.87
297.1	480.88
297.2	480.88
297.3	480.89
297.4	480.9
297.5	480.91
297.6	480.92
297.7	480.93
297.8	480.93
297.9	480.94
298	480.95
298.1	480.96
298.2	480.97
298.3	480.98
298.4	480.98
298.5	480.99
298.6	481
298.7	481.01
298.8	481.02
298.9	481.03
299	481.03
299.1	481.04
299.2	481.05
299.3	481.06
299.4	481.07
299.5	481.08
299.6	481.08
299.7	481.09
299.8	481.1
299.9	481.11
300	111.6