Data from https://doi.org/10.1002/adma.201903577
Upon heating
Temperature(K)	Heat capacity(J/kg/K)

146.83	403.53
146.86	403.81
146.89	403.79
146.93	403.96
146.96	404.25
146.99	404.41
147.02	403.57
147.06	401.9
147.09	400.68
147.12	399.45
147.15	398.06
147.19	396.63
147.22	394.6
147.25	392.6
147.28	391.5
147.32	391.33
147.35	391.85
147.38	392.64
147.41	393.49
147.45	394.31
147.48	395.2
147.51	396.46
147.54	397.75
147.58	398.61
147.61	399.13
147.64	399.45
147.67	399.58
147.71	399.82
147.74	400.1
147.77	400.1
147.8	399.95
147.83	399.39
147.87	398.31
147.9	397.84
147.93	398.23
147.96	398.5
148	398.51
148.03	398.29
148.06	397.91
148.09	397.98
148.13	398.48
148.16	399.08
148.19	399.44
148.22	399.11
148.26	398.41
148.29	397.02
148.32	394.79
148.35	393.08
148.39	392.6
148.42	392.97
148.45	393.86
148.48	394.94
148.51	395.63
148.54	395.73
148.58	395.4
148.61	395.01
148.64	394.78
148.68	394.83
148.71	395.24
148.75	396.03
148.78	397.12
148.81	397.99
148.84	398.44
148.87	398.59
148.91	398.15
148.94	397.05
148.97	395.67
149	394.27
149.04	393.13
149.07	392.21
149.1	391.23
149.13	390.37
149.17	389.79
149.2	389.63
149.23	389.89
149.26	390.38
149.3	391.02
149.33	391.74
149.36	392.59
149.4	393.72
149.43	394.87
149.46	395.93
149.49	397.16
149.53	398.39
149.56	399.64
149.59	401.17
149.63	402.57
149.66	403.39
149.69	403.67
149.72	403.63
149.75	403.29
149.79	402.21
149.82	400
149.85	396.9
149.89	394.37
149.92	393.23
149.95	392.87
149.98	392.47
150.02	391.85
150.05	391.38
150.08	391.24
150.11	391.53
150.15	391.87
150.18	391.69
150.21	391.31
150.24	391.35
150.28	391.83
150.31	392.56
150.35	393.32
150.38	394.09
150.41	394.83
150.44	395.29
150.47	395.38
150.51	395.36
150.54	395.65
150.57	395.95
150.61	395.63
150.64	394.51
150.67	392.76
150.7	391.15
150.74	390.39
150.77	390.4
150.8	390.85
150.83	391.58
150.87	392.36
150.9	393.19
150.93	393.97
150.96	394.49
151	395
151.03	395.44
151.06	395.47
151.1	395.79
151.13	396.23
151.16	396.33
151.19	396.39
151.23	396.49
151.26	396.84
151.29	397.65
151.33	398.3
151.36	397.82
151.39	396.89
151.43	396.28
151.46	395.88
151.49	395.75
151.52	395.92
151.55	396.16
151.59	396.35
151.62	396.35
151.66	396.18
151.69	396.05
151.72	395.97
151.75	395.64
151.78	394.95
151.82	394.24
151.85	393.67
151.88	393.21
151.91	392.9
151.95	392.36
151.98	391.95
152.01	392.34
152.05	393.28
152.08	394.26
152.11	394.79
152.14	394.79
152.18	394.55
152.21	394.36
152.24	394.25
152.28	394.06
152.31	393.63
152.34	393.2
152.38	393.14
152.41	393.55
152.44	394.32
152.47	395.11
152.51	395.6
152.54	395.35
152.57	394.65
152.6	394.07
152.64	393.76
152.67	393.69
152.7	393.37
152.73	392.48
152.77	391.58
152.8	391.18
152.83	391.54
152.87	392.41
152.9	393.19
152.93	393.76
152.96	394.16
153	394.83
153.03	395.79
153.06	396.67
153.1	397.38
153.13	397.84
153.16	398.1
153.2	398.24
153.23	398.59
153.26	399.1
153.29	399.19
153.32	398.27
153.36	396.58
153.39	395.19
153.42	394.73
153.46	394.88
153.49	395.08
153.52	394.87
153.55	393.61
153.59	391.46
153.62	389.3
153.65	387.73
153.69	387.06
153.72	387.14
153.75	387.47
153.79	387.72
153.82	387.61
153.85	387.15
153.88	387.02
153.92	387.52
153.95	388.29
153.98	389.06
154.02	389.51
154.05	389.39
154.08	388.84
154.11	388.38
154.15	388.27
154.18	388.27
154.21	388.06
154.25	387.49
154.28	386.57
154.31	385.57
154.35	384.81
154.38	384.08
154.41	383.25
154.44	382.38
154.47	381.42
154.51	380.86
154.54	380.94
154.57	381.27
154.61	381.77
154.64	382.39
154.67	383.01
154.71	383.51
154.74	383.88
154.77	384.07
154.81	384.15
154.84	384.12
154.87	383.91
154.9	383.69
154.94	383.63
154.97	383.56
155	383.3
155.03	382.83
155.07	382.36
155.1	381.97
155.14	381.48
155.17	380.75
155.2	380.04
155.23	379.87
155.27	380.08
155.3	380.28
155.33	380.44
155.37	380.3
155.4	379.8
155.43	379.43
155.47	379.45
155.5	379.58
155.53	379.66
155.56	379.63
155.59	379.52
155.63	379.5
155.66	379.65
155.7	379.8
155.73	379.77
155.76	379.46
155.79	379.03
155.83	378.76
155.86	378.84
155.89	379.04
155.93	379.04
155.96	378.71
155.99	378.09
156.02	377.32
156.06	376.4
156.09	375.42
156.12	374.84
156.15	374.69
156.19	374.71
156.22	374.79
156.26	374.82
156.29	374.74
156.32	374.7
156.35	374.79
156.39	374.93
156.42	375.11
156.45	375.26
156.49	375.41
156.52	375.56
156.55	375.72
156.59	375.97
156.62	376.12
156.65	376
156.68	375.76
156.72	375.58
156.75	375.49
156.78	375.48
156.81	375.52
156.85	375.39
156.88	374.91
156.91	374.17
156.95	373.52
156.98	373.19
157.01	373.06
157.04	373.01
157.08	373
157.11	373.01
157.15	373.06
157.18	373.13
157.21	373.15
157.25	373.25
157.28	373.47
157.31	373.7
157.35	373.91
157.38	374.03
157.41	374.06
157.44	374.34
157.48	375.04
157.51	375.73
157.54	376.13
157.58	376.34
157.61	376.43
157.64	376.42
157.68	376.26
157.71	376.11
157.74	376.08
157.78	376.1
157.81	376.09
157.84	375.91
157.87	375.44
157.91	374.68
157.94	373.76
157.97	372.99
158.01	372.66
158.04	372.7
158.07	372.86
158.1	373.04
158.14	373.18
158.17	373.35
158.2	373.61
158.24	373.95
158.27	374.28
158.3	374.52
158.34	374.71
158.37	374.93
158.4	375.22
158.43	375.6
158.46	376.01
158.5	376.34
158.53	376.6
158.57	376.96
158.6	377.42
158.63	377.82
158.67	378
158.7	378.04
158.73	378.11
158.77	378.17
158.8	378.18
158.83	378.13
158.86	377.95
158.9	377.65
158.93	377.41
158.96	377.08
158.99	376.77
159.03	376.51
159.06	376.21
159.1	376.05
159.13	376.04
159.16	376.11
159.19	376.2
159.23	376.31
159.26	376.42
159.3	376.54
159.33	376.69
159.36	376.88
159.39	377.01
159.43	377.08
159.46	377.19
159.49	377.33
159.53	377.45
159.56	377.57
159.59	377.72
159.62	377.89
159.66	378.07
159.69	378.24
159.73	378.34
159.76	378.16
159.79	377.65
159.83	377.17
159.86	377.05
159.89	377.17
159.92	377.34
159.95	377.51
159.99	377.66
160.02	377.81
160.06	377.92
160.09	377.98
160.12	378.04
160.15	378.12
160.19	378.18
160.22	378.3
160.25	378.51
160.29	378.87
160.32	379.45
160.35	380.09
160.39	380.6
160.42	380.97
160.45	381.28
160.48	381.56
160.52	381.84
160.55	382.06
160.58	382.22
160.62	382.36
160.65	382.5
160.69	382.65
160.72	382.88
160.75	383.1
160.78	383.2
160.82	383.14
160.85	383.08
160.88	382.97
160.92	382.79
160.95	382.7
160.98	382.64
161.01	382.58
161.05	382.57
161.08	382.56
161.11	382.6
161.15	382.7
161.18	382.79
161.22	382.74
161.25	382.46
161.28	382.16
161.31	382.13
161.35	382.34
161.38	382.63
161.41	382.85
161.44	382.96
161.48	382.96
161.51	382.83
161.54	382.62
161.58	382.48
161.61	382.5
161.64	382.61
161.68	382.8
161.71	383.03
161.74	383.17
161.78	383.27
161.81	383.42
161.84	383.6
161.88	383.82
161.91	384.09
161.94	384.36
161.98	384.63
162.01	384.92
162.04	385.12
162.08	385.3
162.11	385.48
162.14	385.65
162.18	385.82
162.21	385.94
162.24	385.93
162.27	385.77
162.3	385.39
162.34	384.91
162.37	384.61
162.41	384.42
162.44	384.18
162.47	383.93
162.51	383.84
162.54	383.97
162.57	384.33
162.61	384.85
162.64	385.42
162.67	385.96
162.71	386.37
162.74	386.59
162.77	386.67
162.81	387
162.84	387.56
162.87	387.98
162.9	388.25
162.94	388.43
162.97	388.58
163	388.79
163.04	388.99
163.07	389.24
163.1	389.61
163.14	390.01
163.17	390.34
163.2	390.49
163.24	390.29
163.27	389.99
163.3	389.81
163.33	389.71
163.37	389.55
163.4	389.3
163.43	389.09
163.46	389.04
163.5	389.06
163.53	389.11
163.57	389.21
163.6	389.29
163.63	389.25
163.66	388.7
163.7	387.72
163.73	387.07
163.77	387.1
163.8	387.47
163.83	387.91
163.86	388.56
163.9	389.41
163.93	390.4
163.96	391.57
164	392.57
164.03	393.26
164.06	393.65
164.1	393.66
164.13	393.43
164.16	393.22
164.2	393.16
164.23	393.22
164.26	393.3
164.3	393.36
164.33	393.43
164.36	393.49
164.39	393.54
164.43	393.57
164.46	393.62
164.5	393.71
164.53	393.78
164.56	393.8
164.6	393.79
164.63	393.69
164.66	393.59
164.69	393.57
164.73	393.57
164.76	393.48
164.79	393.22
164.83	392.9
164.86	392.6
164.89	392.37
164.92	392.17
164.96	392.08
164.99	392.22
165.03	392.56
165.06	392.91
165.09	393.14
165.12	393.17
165.16	393.04
165.19	392.94
165.22	392.94
165.26	393
165.29	393.18
165.32	393.42
165.36	393.6
165.39	393.8
165.42	394.02
165.46	394.3
165.49	394.69
165.52	394.99
165.56	395.2
165.59	395.41
165.62	395.57
165.66	395.56
165.69	395.23
165.72	394.74
165.76	394.44
165.79	394.08
165.82	393.5
165.86	392.92
165.89	392.49
165.92	392.15
165.96	391.82
165.99	391.64
166.02	391.69
166.05	391.87
166.09	392.08
166.12	392.23
166.16	392.31
166.19	392.35
166.22	392.38
166.25	392.47
166.29	392.65
166.32	392.84
166.35	392.95
166.39	392.92
166.42	392.82
166.45	392.83
166.49	393.07
166.52	393.63
166.55	394.28
166.58	394.65
166.62	394.74
166.65	394.69
166.68	394.65
166.72	394.68
166.75	394.75
166.78	394.8
166.82	394.73
166.85	394.61
166.89	394.57
166.92	394.53
166.95	394.49
166.98	394.49
167.02	394.41
167.05	394.13
167.08	393.78
167.12	393.49
167.15	393.35
167.18	393.16
167.22	392.75
167.25	392.19
167.28	391.63
167.32	391.34
167.35	391.33
167.38	391.41
167.42	391.49
167.45	391.7
167.48	391.91
167.51	392
167.55	392.15
167.58	392.52
167.62	393.07
167.65	393.58
167.68	393.78
167.71	393.63
167.75	393.11
167.78	392.25
167.81	391.37
167.85	390.84
167.88	390.76
167.91	390.93
167.95	391.11
167.98	391.23
168.01	391.36
168.05	391.53
168.08	391.7
168.11	391.9
168.14	392.04
168.18	391.88
168.21	391.38
168.25	390.72
168.28	390.2
168.31	390.24
168.35	390.81
168.38	391.6
168.41	392.44
168.44	393.21
168.48	393.96
168.51	394.61
168.55	395.12
168.58	395.55
168.61	396.05
168.65	396.58
168.68	397.06
168.71	397.4
168.74	397.62
168.78	397.77
168.81	397.86
168.84	397.84
168.88	397.77
168.91	397.81
168.94	397.97
168.98	398.1
169.01	398.04
169.04	397.49
169.08	396.48
169.11	395.48
169.14	394.71
169.18	394.06
169.21	393.34
169.24	392.54
169.27	391.54
169.31	390.36
169.34	389.1
169.38	387.99
169.41	387.52
169.44	387.75
169.48	388.14
169.51	388.28
169.54	388.26
169.58	388.25
169.61	388.3
169.64	388.41
169.67	388.63
169.71	389.02
169.74	389.47
169.77	389.8
169.81	389.97
169.84	390.05
169.87	390.13
169.91	390.31
169.94	390.63
169.98	390.93
170.01	391.06
170.04	391.09
170.07	391.18
170.11	391.39
170.14	391.65
170.17	391.91
170.21	392.05
170.24	392.07
170.28	391.99
170.31	391.86
170.34	391.69
170.37	391.54
170.41	391.49
170.44	391.47
170.47	391.38
170.51	391.28
170.54	391.19
170.57	391.24
170.61	391.47
170.64	391.82
170.67	392.19
170.7	392.53
170.74	392.76
170.77	392.66
170.8	391.44
170.84	389.27
170.87	387.56
170.9	386.73
170.94	386.39
170.97	386.32
171	386.54
171.04	386.87
171.07	387.18
171.1	387.44
171.14	387.68
171.17	388.06
171.2	388.77
171.24	389.83
171.27	390.88
171.3	391.59
171.34	392.09
171.37	392.57
171.4	393.03
171.44	393.47
171.47	393.73
171.5	393.71
171.54	393.5
171.57	393.36
171.6	393.41
171.64	393.55
171.67	393.75
171.7	393.9
171.74	393.96
171.77	394.04
171.8	394.22
171.84	394.35
171.87	394.26
171.9	393.89
171.94	393.47
171.97	393.26
172	393.01
172.04	392.52
172.07	391.92
172.1	391.23
172.13	390.66
172.17	390.52
172.2	390.56
172.23	390.6
172.27	390.61
172.3	390.46
172.33	390.28
172.37	390.16
172.4	390.13
172.43	390.24
172.47	390.43
172.5	390.62
172.53	390.83
172.57	391.14
172.6	391.41
172.63	391.57
172.66	391.76
172.7	391.91
172.73	392.02
172.77	392.19
172.8	392.33
172.83	392.36
172.87	392.21
172.9	392
172.93	391.87
172.97	391.73
173	391.55
173.03	391.16
173.06	390.37
173.1	389.41
173.13	388.76
173.16	388.53
173.2	388.57
173.23	388.8
173.26	388.93
173.3	388.68
173.33	388.02
173.36	387.38
173.4	387.06
173.43	387.04
173.46	387.18
173.5	387.28
173.53	387.27
173.56	387.21
173.6	387.3
173.63	387.42
173.66	387.47
173.7	387.65
173.73	388.08
173.76	388.75
173.8	389.42
173.83	389.69
173.86	389.45
173.9	388.65
173.93	387.45
173.96	386.62
174	386.35
174.03	386.27
174.06	386.33
174.1	386.46
174.13	386.53
174.16	386.61
174.2	386.68
174.23	386.64
174.26	386.61
174.3	386.67
174.33	386.81
174.36	386.98
174.39	387.15
174.43	387.33
174.46	387.5
174.5	387.64
174.53	387.74
174.56	387.8
174.59	387.93
174.63	388.28
174.66	388.77
174.69	389.24
174.73	389.58
174.76	389.72
174.79	389.65
174.83	389.52
174.86	389.5
174.89	389.58
174.93	389.68
174.96	389.6
174.99	389.32
175.03	389.06
175.06	388.9
175.09	388.74
175.13	388.46
175.16	388.09
175.19	387.79
175.23	387.69
175.26	387.63
175.29	387.52
175.33	387.24
175.36	386.83
175.39	386.48
175.43	386.27
175.46	386.12
175.49	385.86
175.53	385.36
175.56	384.85
175.59	384.7
175.63	384.86
175.66	385.22
175.69	385.69
175.73	386.16
175.76	386.59
175.79	386.79
175.82	386.73
175.86	386.65
175.89	386.91
175.92	387.36
175.96	387.67
175.99	387.82
176.02	387.89
176.06	387.87
176.09	387.8
176.12	387.81
176.16	387.84
176.19	387.75
176.22	387.57
176.26	387.4
176.29	387.35
176.32	387.44
176.36	387.55
176.39	387.57
176.42	387.39
176.46	386.94
176.49	386.54
176.52	386.4
176.56	386.4
176.59	386.46
176.62	386.53
176.66	386.61
176.69	386.79
176.72	386.98
176.76	387.1
176.79	387.18
176.82	387.24
176.86	387.28
176.89	387.31
176.92	387.18
176.96	386.54
176.99	385.17
177.02	383.43
177.05	381.93
177.09	380.94
177.12	380.41
177.15	379.91
177.19	379.27
177.22	378.83
177.26	378.75
177.29	378.89
177.32	379.11
177.36	379.43
177.39	379.95
177.42	380.58
177.46	381.13
177.49	381.56
177.52	381.91
177.56	382.22
177.59	382.47
177.62	382.69
177.66	382.91
177.69	383.14
177.72	383.35
177.75	383.54
177.79	383.67
177.82	383.74
177.86	383.74
177.89	383.68
177.92	383.56
177.95	383.34
177.99	382.98
178.02	382.57
178.05	382.32
178.09	382.27
178.12	382.26
178.15	382.22
178.19	382.2
178.22	382.3
178.25	382.44
178.29	382.52
178.32	382.49
178.35	382.37
178.39	382.61
178.42	383.3
178.45	383.81
178.49	383.91
178.52	383.75
178.55	383.65
178.59	383.73
178.62	383.88
178.65	384.08
178.69	384.25
178.72	384.28
178.75	384.23
178.78	384.16
178.82	384.04
178.85	383.79
178.89	383.42
178.92	383.05
178.95	382.77
178.98	382.6
179.02	382.45
179.05	382.29
179.09	382.01
179.12	381.4
179.15	380.51
179.19	379.75
179.22	379.41
179.25	379.4
179.28	379.46
179.32	379.51
179.35	379.62
179.38	379.91
179.42	380.38
179.45	380.88
179.48	381.14
179.52	381.09
179.55	380.86
179.58	380.59
179.62	380.38
179.65	380.22
179.69	380.1
179.72	380.17
179.75	380.42
179.78	380.62
179.82	380.75
179.85	380.8
179.89	380.78
179.92	380.89
179.95	381.17
179.98	381.47
180.02	381.74
180.05	381.9
180.08	381.96
180.12	381.93
180.15	381.92
180.18	382.02
180.22	382.15
180.25	382.26
180.29	382.35
180.32	382.31
180.35	382.11
180.38	381.79
180.42	381.33
180.45	380.74
180.48	380.19
180.52	379.79
180.55	379.53
180.58	379.3
180.62	379.06
180.65	378.78
180.68	378.43
180.72	377.93
180.75	377.43
180.78	377.16
180.82	377.14
180.85	377.23
180.88	377.29
180.92	377.26
180.95	377.22
180.98	377.23
181.02	377.31
181.05	377.39
181.08	377.42
181.12	377.44
181.15	377.47
181.18	377.54
181.22	377.63
181.25	377.71
181.28	377.58
181.32	377.11
181.35	376.54
181.38	376.2
181.42	376.08
181.45	376.03
181.48	375.94
181.52	375.79
181.55	375.73
181.58	375.81
181.62	375.94
181.65	376.02
181.68	375.94
181.71	375.65
181.75	375.23
181.79	374.84
181.82	374.5
181.85	374.09
181.89	373.58
181.92	373.17
181.95	373
181.98	372.94
182.02	372.83
182.05	372.73
182.08	372.7
182.12	372.71
182.15	372.77
182.18	372.89
182.22	372.99
182.25	373.04
182.29	373.07
182.32	373.13
182.35	373.23
182.38	373.35
182.42	373.51
182.45	373.66
182.48	373.79
182.52	373.92
182.55	374.12
182.58	374.5
182.62	374.9
182.65	375.13
182.68	375.18
182.72	375.18
182.75	375.2
182.78	375.19
182.82	374.85
182.85	374.18
182.88	373.52
182.92	373.06
182.95	372.78
182.98	372.58
183.02	372.24
183.05	371.7
183.08	371.27
183.12	370.94
183.15	370.72
183.18	370.68
183.22	370.7
183.25	370.76
183.28	370.87
183.31	371.03
183.35	371.24
183.38	371.41
183.42	371.52
183.45	371.54
183.48	371.33
183.52	370.77
183.55	370.29
183.58	370.14
183.62	370.08
183.65	370.04
183.68	369.98
183.71	369.86
183.75	369.8
183.78	369.88
183.81	370.06
183.85	370.28
183.88	370.51
183.92	370.68
183.95	370.77
183.98	370.84
184.01	370.93
184.05	371.03
184.08	371.1
184.12	371.17
184.15	371.26
184.18	371.38
184.22	371.52
184.25	371.64
184.28	371.71
184.31	371.67
184.35	371.45
184.38	371.11
184.42	370.92
184.45	370.91
184.48	370.86
184.51	370.72
184.55	370.5
184.58	370.33
184.61	370.24
184.65	370.02
184.68	369.62
184.72	369.06
184.75	368.57
184.78	368.27
184.81	368.04
184.85	367.92
184.88	367.92
184.92	367.94
184.95	367.96
184.98	367.99
185.02	368.06
185.05	368.24
185.08	368.5
185.11	368.66
185.15	368.69
185.18	368.66
185.21	368.66
185.25	368.62
185.28	368.5
185.31	368.25
185.35	367.79
185.38	367.2
185.41	366.55
185.45	365.59
185.48	364.61
185.51	364.04
185.55	363.65
185.58	363.47
185.61	363.52
185.65	363.64
185.68	363.78
185.71	363.89
185.75	363.94
185.78	364
185.81	364.13
185.85	364.34
185.88	364.59
185.91	364.81
185.94	364.97
185.98	365.11
186.01	365.22
186.05	365.32
186.08	365.44
186.11	365.57
186.15	365.7
186.18	365.81
186.21	365.91
186.25	365.97
186.28	365.97
186.31	365.98
186.35	366.2
186.38	366.58
186.41	366.95
186.45	367.24
186.48	367.36
186.51	367.31
186.55	367.18
186.58	366.83
186.61	366.42
186.65	366.29
186.68	366.4
186.71	366.51
186.75	366.47
186.78	366.28
186.81	365.94
186.85	365.66
186.88	365.52
186.91	365.44
186.95	365.4
186.98	365.36
187.01	365.34
187.05	365.35
187.08	365.36
187.11	365.34
187.15	365.25
187.18	365.09
187.21	364.95
187.24	364.87
187.28	364.75
187.31	364.69
187.35	364.71
187.38	364.75
187.41	364.75
187.45	364.71
187.48	364.61
187.51	364.39
187.55	364.04
187.58	363.72
187.61	363.55
187.64	363.56
187.68	363.67
187.71	363.81
187.75	363.92
187.78	363.95
187.81	363.78
187.84	363.51
187.88	363.4
187.91	363.52
187.94	363.68
187.98	363.82
188.01	363.82
188.04	363.54
188.08	362.95
188.11	362.36
188.14	362.02
188.18	361.91
188.21	361.96
188.25	361.97
188.28	361.88
188.31	361.83
188.35	361.87
188.38	361.99
188.41	362.06
188.45	361.95
188.48	361.71
188.51	361.44
188.55	361.28
188.58	361.21
188.61	361.17
188.65	361.13
188.68	361.14
188.71	361.17
188.75	361.22
188.78	361.32
188.81	361.43
188.85	361.52
188.88	361.58
188.91	361.64
188.95	361.73
188.98	361.81
189.01	361.91
189.05	362.03
189.08	362.18
189.11	362.32
189.15	362.41
189.18	362.49
189.21	362.59
189.25	362.72
189.28	362.85
189.31	362.9
189.35	362.78
189.38	362.52
189.41	362.25
189.45	362.08
189.48	361.99
189.51	361.93
189.55	361.87
189.58	361.83
189.61	361.82
189.65	361.86
189.68	361.91
189.71	361.92
189.75	361.81
189.78	361.5
189.81	361.23
189.85	361.21
189.88	361.29
189.91	361.33
189.94	361.33
189.98	361.31
190.01	361.28
190.05	361.24
190.08	361.18
190.11	361.12
190.15	361.09
190.18	361.1
190.21	361.1
190.25	361.05
190.28	360.94
190.31	360.81
190.35	360.72
190.38	360.69
190.41	360.68
190.45	360.66
190.48	360.68
190.51	360.71
190.55	360.66
190.58	360.58
190.61	360.54
190.65	360.55
190.68	360.59
190.71	360.64
190.75	360.59
190.78	360.4
190.81	360.19
190.85	360.06
190.88	359.97
190.91	359.9
190.95	359.81
190.98	359.74
191.02	359.73
191.05	359.75
191.08	359.78
191.11	359.83
191.14	359.9
191.18	359.99
191.21	360.06
191.25	360.12
191.28	360.17
191.31	360.23
191.35	360.31
191.38	360.44
191.41	360.64
191.45	360.82
191.48	360.96
191.51	361.07
191.55	361.19
191.58	361.39
191.61	361.66
191.65	361.84
191.68	361.79
191.71	361.65
191.75	361.61
191.78	361.68
191.82	361.74
191.85	361.78
191.88	361.79
191.91	361.8
191.95	361.81
191.98	361.8
192.01	361.71
192.05	361.59
192.08	361.42
192.11	361.18
192.15	360.92
192.18	360.6
192.21	360.29
192.25	360.07
192.28	359.89
192.31	359.78
192.35	359.72
192.38	359.7
192.41	359.69
192.45	359.68
192.48	359.64
192.52	359.57
192.55	359.51
192.58	359.46
192.61	359.44
192.65	359.39
192.68	359.27
192.71	359.18
192.75	359.2
192.78	359.27
192.81	359.35
192.85	359.37
192.88	359.15
192.91	358.48
192.95	357.49
192.98	356.62
193.02	356.25
193.05	356.23
193.08	356.32
193.11	356.45
193.15	356.54
193.18	356.52
193.21	356.51
193.25	356.52
193.28	356.57
193.31	356.64
193.35	356.73
193.38	356.83
193.42	356.92
193.45	357.01
193.48	357.09
193.51	357.17
193.55	357.25
193.58	357.35
193.61	357.46
193.65	357.55
193.68	357.62
193.71	357.63
193.75	357.62
193.78	357.68
193.81	357.82
193.85	357.98
193.88	358.14
193.91	358.29
193.95	358.43
193.98	358.53
194.01	358.51
194.05	358.4
194.08	358.31
194.11	358.23
194.15	358.14
194.18	358.07
194.21	358.04
194.25	358.05
194.28	358.1
194.31	358.15
194.35	358.21
194.38	358.29
194.41	358.41
194.45	358.59
194.48	358.76
194.51	358.87
194.55	358.9
